Reaction_Coordinate   Radius (Angstrom)
-33.82300   4.26795
-33.57300   4.03576
-33.32300   3.80916
-33.07300   3.58130
-32.82300   3.36047
-32.57300   3.14035
-32.32300   2.92460
-32.07300   2.70841
-31.82300   2.50292
-31.57300   2.30000
-31.32300   2.10224
-31.07300   1.92086
-30.82300   1.74191
-30.57300   1.57598
-30.32300   1.43128
-30.07300   1.29362
-29.82300   1.18582
-29.57300   1.09732
-29.32300   1.03937
-29.07300   1.00753
-28.82300   1.00099
-28.57300   .98653
-28.32300   .97680
-28.07300   .98455
-27.82300   1.01914
-27.57300   1.07125
-27.32300   1.14231
-27.07300   1.23885
-26.82300   1.34899
-26.57300   1.47414
-26.32300   1.60782
-26.07300   1.76049
-25.82300   1.86684
-25.57300   1.97545
-25.32300   2.09691
-25.07300   2.22551
-24.82300   2.36807
-24.57300   2.47989
-24.32300   2.44948
-24.07300   2.43715
-23.82300   2.42901
-23.57300   2.45099
-23.32300   2.48381
-23.07300   2.52918
-22.82300   2.59012
-22.57300   2.60758
-22.32300   2.62611
-22.07300   2.66232
-21.82300   2.70946
-21.57300   2.75260
-21.32300   2.58614
-21.07300   2.41605
-20.82300   2.26886
-20.57300   2.12428
-20.32300   1.99086
-20.07300   1.86788
-19.82300   1.76037
-19.57300   1.66517
-19.32300   1.58996
-19.07300   1.53065
-18.82300   1.46768
-18.57300   1.42350
-18.32300   1.39546
-18.07300   1.40011
-17.82300   1.42765
-17.57300   1.47876
-17.32300   1.55551
-17.07300   1.53592
-16.82300   1.43364
-16.57300   1.34709
-16.32300   1.28584
-16.07300   1.25141
-15.82300   1.24809
-15.57300   1.26671
-15.32300   1.30529
-15.07300   1.38318
-14.82300   1.47794
-14.57300   1.59816
-14.32300   1.73091
-14.07300   1.87866
-13.82300   2.04358
-13.57300   2.21627
-13.32300   2.13351
-13.07300   2.00154
-12.82300   1.89808
-12.57300   1.80920
-12.32300   1.73454
-12.07300   1.64919
-11.82300   1.58207
-11.57300   1.52538
-11.32300   1.49309
-11.07300   1.47344
-10.82300   1.47509
-10.57300   1.49936
-10.32300   1.53264
-10.07300   1.59223
-9.82300   1.66917
-9.57300   1.75634
-9.32300   1.86032
-9.07300   1.97604
-8.82300   2.10752
-8.57300   2.24882
-8.32300   2.37869
-8.07300   2.21248
-7.82300   2.05247
-7.57300   1.89561
-7.32300   1.76085
-7.07300   1.63156
-6.82300   1.51930
-6.57300   1.41345
-6.32300   1.33730
-6.07300   1.27200
-5.82300   1.22851
-5.57300   1.20276
-5.32300   1.15095
-5.07300   1.09861
-4.82300   1.09358
-4.57300   1.10550
-4.32300   1.16122
-4.07300   1.23621
-3.82300   1.33039
-3.57300   1.45027
-3.32300   1.59244
-3.07300   1.74435
-2.82300   1.91335
-2.57300   2.09063
-2.32300   2.28008
-2.07300   2.47314
-1.82300   2.66967
-1.57300   2.75659
-1.32300   2.85588
-1.07300   2.97101
-.82300   3.09185
-.57300   3.23200
-.32300   3.37518
-.07300   3.53362
.17700   3.69478
.42700   3.86726
.67700   4.04323
.92700   4.22615
1.17700   4.24674
1.42700   4.19410
1.67700   4.15497
1.92700   4.13249
1.92700   4.13101
2.17700   4.11608
2.42700   4.11732
2.67700   3.99572
2.92700   3.77230
3.17700   3.54781
3.42700   3.32952
3.67700   3.11819
3.92700   2.90442
4.17700   2.69872
4.42700   2.50032
4.67700   2.30658
4.92700   2.11706
5.17700   1.94573
5.42700   1.78128
5.67700   1.62753
5.92700   1.49739
6.17700   1.37905
6.42700   1.28481
6.67700   1.21190
6.92700   1.13976
7.17700   1.06928
7.42700   1.02178
7.67700   .98932
7.92700   .98945
8.17700   1.00157
8.42700   1.04842
8.67700   1.11338
8.92700   1.19915
9.17700   1.17942
9.42700   1.03612
9.67700   .91311
9.92700   .80191
10.17700   .71337
10.42700   .66058
10.67700   .62066
10.92700   .61094
11.17700   .63299
11.42700   .68070
11.67700   .74925
11.92700   .84187
12.17700   .95892
12.42700   1.09293
12.67700   1.01803
12.92700   .90456
13.17700   .81367
13.42700   .74468
13.67700   .70563
13.92700   .68813
14.17700   .69610
14.42700   .73279
14.67700   .79482
14.92700   .88139
15.17700   .98247
15.42700   1.11158
15.67700   1.00221
15.92700   .89094
16.17700   .80534
16.42700   .73650
16.67700   .69207
16.92700   .67753
17.17700   .68752
17.42700   .72842
17.67700   .78961
17.92700   .86663
18.17700   .98142
18.42700   1.10158
18.67700   1.24244
18.92700   1.14487
19.17700   1.05679
19.42700   .98544
19.67700   .93369
19.92700   .90346
20.17700   .90849
20.42700   .92543
20.67700   .97185
20.92700   1.04260
21.17700   1.13214
21.42700   1.24085
21.67700   1.36513
21.92700   1.50676
22.17700   1.65948
22.42700   1.82550
22.67700   1.99394
22.92700   2.18181
23.17700   2.36846
23.42700   2.56591
23.67700   2.76687
23.92700   2.97281
24.17700   3.18141
24.42700   3.38480
24.67700   3.46646
24.92700   3.55145
25.17700   3.64982
25.42700   3.75899
25.67700   3.88106
25.92700   4.01119
26.17700   4.14169
26.42700   4.28736
26.67700   4.43341
26.92700   4.59000
27.17700   4.74853
27.42700   4.91964
