Reaction Coordinate   Radius (Angstrom)
-11.33800   2.13748
-11.08800   1.97546
-10.83800   1.83004
-10.58800   1.69944
-10.33800   1.59161
-10.08800   1.49056
-9.83800   1.41286
-9.58800   1.34349
-9.33800   1.29424
-9.08800   1.27226
-8.83800   1.26683
-8.58800   1.28621
-8.33800   1.27144
-8.08800   1.19816
-7.83800   1.13577
-7.58800   1.09994
-7.33800   1.08400
-7.08800   1.07503
-6.83800   1.07294
-6.58800   1.10042
-6.33800   1.14625
-6.08800   1.18407
-5.83800   1.20245
-5.58800   1.24217
-5.33800   1.30000
-5.08800   1.29644
-4.83800   1.24397
-4.58800   1.17983
-4.33800   1.10500
-4.08800   1.05518
-3.83800   1.01935
-3.58800   .98262
-3.33800   .97940
-3.08800   1.00417
-2.83800   1.05883
-2.58800   1.13476
-2.33800   1.17203
-2.08800   1.15223
-1.83800   1.17860
-1.83800   1.17784
-1.58800   1.22277
-1.33800   1.29099
-1.08800   1.36839
-.83800   1.46640
-.58800   1.54889
-.33800   1.64236
-.08800   1.71708
.16200   1.72009
.41200   1.62629
.66200   1.50683
.91200   1.40766
1.16200   1.32798
1.41200   1.25051
1.66200   1.20167
1.91200   1.15950
2.16200   1.15862
2.41200   1.16371
2.66200   1.18168
2.91200   1.09192
3.16200   1.02773
3.41200   1.00434
3.66200   .96740
3.91200   1.03873
4.16200   1.07878
4.41200   1.11445
4.66200   1.19850
4.91200   1.25231
5.16200   1.29595
5.41200   1.29830
5.66200   1.23863
5.91200   1.20270
6.16200   1.18957
6.41200   1.15496
6.66200   1.10148
6.91200   1.07024
7.16200   1.07945
7.41200   1.08807
7.66200   1.10734
7.91200   1.16237
8.16200   1.24115
8.41200   1.29104
8.66200   1.27026
8.91200   1.27527
9.16200   1.27404
9.41200   1.29578
9.66200   1.35016
9.91200   1.42400
10.16200   1.50538
10.41200   1.60168
10.66200   1.71137
10.91200   1.83590
11.16200   1.97913
11.41200   2.14070
